2.0003333888981496, -11.902941333347746
2.002000333388898, 7.831794757262122
2.0036672778796465, -0.8573920565067379
2.005334222370395, -7.776721068151494
2.0070011668611434, -8.077095310206438
2.008668111351892, -4.433536604588072
2.0103350558426403, -1.6468909284189737
2.0120020003333887, 0.028636195165977707
2.013668944824137, 1.3047574357310636
2.0153358893148856, 0.8193727479362478
2.017002833805634, 0.6706582018140623
2.0186697782963825, 7.126913544248661
2.020336722787131, 6.409196731717232
2.0220036672778794, 2.07789128027141
2.023670611768628, 1.5616582138476778
2.0253375562593763, 1.7250555757909538
2.0270045007501247, 4.24224448354322
2.028671445240873, 5.059381947447079
2.0303383897316216, 6.609343762769013
2.0320053342223705, 6.035863363619015
2.033672278713119, -1.1704019686738878
2.0353392232038674, -1.396157085673539
2.037006167694616, 1.0412812420226114
2.0386731121853643, 2.738411358601642
2.0403400566761127, 4.319867226367958
2.042007001166861, 2.4687344120954298
2.0436739456576096, 10.653689890327383
2.045340890148358, 7.891353554475203
2.0470078346391065, 2.9445077677908165
2.048674779129855, 6.154326103423918
2.0503417236206034, 3.0419940768462377
2.052008668111352, 2.4120951982176067
2.0536756126021003, 1.8014212653871862
2.0553425570928487, 0.7707860743233068
2.057009501583597, 0.1397007603535323
2.0586764460743456, -1.7521788978560895
2.060343390565094, 0.07039709552687956
2.0620103350558425, 1.7580313246469843
2.063677279546591, -2.289183362510504
2.0653442240373394, -0.8708077098814114
2.067011168528088, -3.7414393574841665
2.0686781130188363, -3.8508322801789925
2.0703450575095848, -5.064851890014362
2.072012002000333, -7.356370550556262
2.0736789464910816, -6.097138821255833
2.07534589098183, -7.4306894210571315
2.0770128354725785, -7.82166077302144
2.078679779963327, -7.909169233692935
2.0803467244540754, -4.420623070021621
2.082013668944824, -12.397187123217243
2.0836806134355723, -5.259267798875786
2.0853475579263208, -9.333498116789496
2.087014502417069, -10.778973365106383
2.0886814469078177, -11.148683047813044
2.0903483913985665, -11.30698306711109
2.092015335889315, -7.488817630715373
2.0936822803800634, -3.836757172679085
2.095349224870812, 14.57367012166618
2.0970161693615603, -6.875119471430049
2.0986831138523088, 8.449337183354483
2.100350058343057, -2.4620063598768342
2.1020170028338057, -0.8467665093776295
2.103683947324554, 11.57775433495536
2.1053508918153025, 18.65015242004413
2.107017836306051, 61.20321225042788
2.1086847807967994, 12.304135919573087
2.110351725287548, -21.273168232298875
2.1120186697782963, -8.783659330114713
2.1136856142690448, 32.604753885221506
2.1153525587597932, 14.265287453580951
2.1170195032505417, 8.571377712343017
2.11868644774129, 12.806274393088138
2.1203533922320386, -4.921458112735993
2.122020336722787, 23.146570299206545
2.1236872812135354, -8.14279550058445
2.125354225704284, 6.027573951176343
2.1270211701950323, -22.656263017227957
2.128688114685781, -14.635441084345835
2.1303550591765292, 31.765608708976796
2.1320220036672777, 4.36415288037886
2.133688948158026, -14.125235850293192
2.1353558926487746, -37.08323489674413
2.137022837139523, 0.5235462376332096
2.1386897816302715, -2.985543108651438
2.14035672612102, -13.663570008686866
2.1420236706117683, -12.019727248826522
2.143690615102517, -12.382304043303968
2.1453575595932652, 1.4562332435252259
2.1470245040840137, -32.540066905385174
2.1486914485747626, -10.743747269617268
2.150358393065511, 5.900498531900098
2.1520253375562595, 5.250183106976795
2.153692282047008, 10.979179619208775
2.1553592265377564, -8.622182326821012
2.157026171028505, -15.337456650100044
2.1586931155192532, -8.237425605334579
2.1603600600100017, -4.2837364889354195
2.16202700450075, -1.1832136216089486
2.1636939489914986, 31.63754747298053
2.165360893482247, -11.759476518131919
2.1670278379729955, -4.275742416910623
2.168694782463744, 41.865452008450035
2.1703617269544924, 3.29483509290443
2.172028671445241, 17.377447992307154
2.1736956159359893, -4.030663490827572
2.1753625604267377, -19.938458418637147
2.177029504917486, -0.16050196946266126
2.1786964494082346, -0.269500225486651
2.180363393898983, 0.4203649914626517
2.1820303383897315, 10.86583662080406
2.18369728288048, 31.434044141368258
2.1853642273712284, 9.864187128809373
2.187031171861977, -7.442192205595433
2.1886981163527253, -9.73984254596733
2.1903650608434737, -7.756068016627687
2.192032005334222, -3.15151593879347
2.1936989498249706, 1.6556966608722354
2.195365894315719, 3.6918905350713542
2.1970328388064675, 4.706955609895698
2.198699783297216, 4.0455537044816845
2.2003667277879644, -6.836541894683484
2.202033672278713, -6.756058531577542
2.2037006167694613, -5.240454783654116
2.2053675612602097, -0.40610945776167695
2.207034505750958, 0.29062111614192965
2.208701450241707, -4.694431748584359
2.2103683947324555, -1.3398831712253312
2.212035339223204, 0.46999864978190065
2.2137022837139524, -3.1164063571128504
2.215369228204701, -2.9281321633282276
2.2170361726954493, -3.934996545986888
2.2187031171861977, -4.977367753728927
2.220370061676946, -2.6424969550208415
2.2220370061676946, -1.7961409139862101
2.223703950658443, -0.08189326009277043
2.2253708951491915, -0.4894950020534594
2.22703783963994, 2.868141739833444
2.2287047841306884, 1.8815933827548792
2.230371728621437, -2.7291973552826527
2.2320386731121853, 0.3107257900999857
2.2337056176029337, 1.1284260514177604
2.235372562093682, 1.8395114895202007
2.2370395065844306, 5.392224637538492
2.238706451075179, 4.543464318419472
2.2403733955659275, 2.975971856647688
2.242040340056676, 3.5161103789911285
2.2437072845474244, 1.771725676724751
2.245374229038173, -0.14917574109094955
2.2470411735289213, 0.6690455087818314
2.2487081180196697, -0.38031127324294345
2.250375062510418, 1.5774757594301292
2.2520420070011666, 1.8504508298362865
2.253708951491915, -0.549364940825087
2.2553758959826635, -0.49562622125910893
2.257042840473412, -0.6931185532558504
2.2587097849641604, -0.5369225382213363
2.260376729454909, -4.764790782383291
2.2620436739456573, 1.5376794897638428
2.2637106184364058, 0.37300954263205544
2.265377562927154, -0.48930649730385933
2.267044507417903, 5.8510059196354085
2.2687114519086515, -0.7936404348421351
2.2703783963994, 1.7206122842301221
2.2720453408901484, 5.562977777376796
2.273712285380897, -1.1019458373492688
2.2753792298716453, -6.3294263926744
2.2770461743623938, -0.8426689183292204
2.278713118853142, -2.248896913917723
2.2803800633438907, 6.183634201827873
2.282047007834639, 3.079357684523936
2.2837139523253875, -4.319502969312296
2.285380896816136, 2.859829927958103
2.2870478413068844, -6.495865521106914
2.288714785797633, -4.900519992153146
2.2903817302883813, -5.228176780005996
2.2920486747791298, -4.462992223180051
2.293715619269878, 9.885444449247583
2.2953825637606267, 11.67514475820088
2.297049508251375, -14.557143320724066
2.2987164527421236, -6.077582897828172
2.300383397232872, -12.95197217306721
2.3020503417236204, -10.179976084918415
2.303717286214369, 13.05726417039951
2.3053842307051173, -4.701801384372718
2.3070511751958658, 8.343500004027929
2.3087181196866142, -18.1501599014843
2.3103850641773627, 9.214623143092593
2.312052008668111, 18.48200329834216
2.3137189531588596, -18.400927134210015
2.315385897649608, -22.609808392529033
2.3170528421403565, -6.52703829838215
2.318719786631105, 36.469558807042915
2.3203867311218533, 10.338889315476704
2.322053675612602, 22.901501297556663
2.3237206201033502, -7.493590372973396
2.325387564594099, -16.959388051406982
2.3270545090848476, 12.007947418164443
2.328721453575596, 9.68456680811111
2.3303883980663445, 1.1668473135189554
2.332055342557093, -2.3895153249089347
2.3337222870478413, 18.019223578367324
2.33538923153859, -27.880737626505503
2.3370561760293382, 8.87072015272641
2.3387231205200867, -23.682350094048573
2.340390065010835, -0.7829840529654284
2.3420570095015836, 57.980013551997175
2.343723953992332, -32.915277214448
2.3453908984830805, -13.940302707727742
2.347057842973829, -13.411608886270542
2.3487247874645774, 27.163994009734893
2.350391731955326, 28.338889604648113
2.3520586764460742, -43.673578939368745
2.3537256209368227, -2.522374212681811
2.355392565427571, 9.146651367126267
2.3570595099183196, -14.578142112498227
2.358726454409068, -15.900821790720437
2.3603933988998165, 7.566777945952965
2.362060343390565, 16.783824002422445
2.3637272878813134, 3.1083525727393253
2.365394232372062, -11.969662215030421
2.3670611768628103, 5.009866646036461
2.3687281213535587, 22.876466566161042
2.370395065844307, -2.929436673786362
2.3720620103350556, -8.528133116081758
2.373728954825804, 0.03800353774688414
2.3753958993165525, 3.96932159262688
2.377062843807301, 3.705027381340858
2.3787297882980494, -6.5478069240299845
2.380396732788798, -6.04022440651889
2.3820636772795463, -3.0905139978520055
2.3837306217702947, -7.206097981422108
2.3853975662610436, 0.24482470794739164
2.387064510751792, -0.717577329948937
2.3887314552425405, 10.311115144137727
2.390398399733289, 24.53830966177105
2.3920653442240374, -0.03224743624468962
2.393732288714786, -11.348401958468123
2.3953992332055343, -9.860701738845028
2.3970661776962827, -9.355584610035471
2.398733122187031, -4.159356400292076
2.4004000666777796, -1.5297891682997253
2.402067011168528, 0.155568756911852
2.4037339556592765, 3.0519020691714474
2.405400900150025, 5.188941664597785
2.4070678446407734, -0.6693918581829429
2.408734789131522, 0.02196390639838297
2.4104017336222703, -2.701129800303258
2.4120686781130187, -3.3087105480929937
2.413735622603767, 1.00380302523173
2.4154025670945156, -1.800755826316571
2.417069511585264, -1.478307162039744
2.4187364560760125, 2.544716672189142
2.420403400566761, 3.9219826584781323
2.4220703450575094, -0.2470689402134204
2.423737289548258, 1.24235070569738
2.4254042340390063, -1.113923197453512
2.4270711785297547, -0.5123809320781214
2.428738123020503, -0.9717383354368254
2.4304050675112516, -8.347379727446935
2.432072012002, -0.7479969985193007
2.4337389564927485, 0.7543076523507164
2.435405900983497, -0.4123843182117528
2.4370728454742454, 2.8488394024872803
2.438739789964994, 4.017527974571459
2.4404067344557423, 3.019721393052197
2.4420736789464907, 0.4980914510893857
2.4437406234372396, 3.3462219806678335
2.445407567927988, 1.9912694307247696
2.4470745124187365, 2.873735593561454
2.448741456909485, 2.485345794050188
2.4504084014002334, 0.6029559597579293
2.452075345890982, 0.9942939383106795
2.4537422903817303, -0.49923905360732945
2.4554092348724788, 2.540583021006433
2.457076179363227, 3.52165765837153
2.4587431238539756, 3.1365204936530477
2.460410068344724, 1.6239056551013553
2.4620770128354725, -0.2224596299141186
2.463743957326221, -0.2284968657170643
2.4654109018169694, 1.4504437478140804
2.467077846307718, -1.075770497903925
2.4687447907984663, -1.850006898973831
2.4704117352892148, 4.025041157097553
2.472078679779963, -4.107618688464317
2.4737456242707117, -3.0026830086392406
2.47541256876146, 1.7125896277249155
2.4770795132522085, -5.237335525233761
2.478746457742957, -3.3599021686090293
2.4804134022337054, -1.7243977800560772
2.482080346724454, -5.333201257542808
2.4837472912152023, -6.44748322626016
2.4854142357059508, 6.732964921704227
2.487081180196699, 2.6713716471380597
2.4887481246874477, -7.252689389663127
2.490415069178196, -0.26411197397468333
2.4920820136689446, -4.363595165599602
2.493748958159693, -5.180162756788625
2.4954159026504414, 3.3980254110627244
2.49708284714119, 0.9230956569698145
2.4987497916319383, -5.873788927874424
2.500416736122687, -0.03343610226490101
2.5020836806134357, -7.0104001575487995
2.503750625104184, 2.835896685401592
2.5054175695949326, -7.839732336322643
2.507084514085681, -14.530216621716075
2.5087514585764294, 17.709059282777375
2.510418403067178, -6.041583134575006
2.5120853475579263, 9.52600969447322
2.513752292048675, -4.427470364582698
2.5154192365394232, -6.647360018413793
2.5170861810301717, 36.65535874531731
2.51875312552092, -11.053849361412606
2.5204200700116686, 6.427159499328127
2.522087014502417, 2.2555539248262377
2.5237539589931655, -1.1304596555413955
2.525420903483914, 17.44077454316835
2.5270878479746623, 9.808945888211325
2.528754792465411, 47.70641209249783
2.5304217369561592, -11.877835026038008
2.5320886814469077, -2.883796197753508
2.533755625937656, 4.852111679277403
2.5354225704284046, -16.412041875564817
2.537089514919153, 28.102370812169177
2.5387564594099015, -36.909859991601735
2.54042340390065, -25.18774720613434
2.5420903483913984, -29.164469735116235
2.543757292882147, -12.335323330485824
2.5454242373728952, 48.243221119119056
2.5470911818636437, -24.73912014043821
2.548758126354392, -3.328065186366583
2.5504250708451406, 11.418576418975329
2.552092015335889, -18.833843065237808
2.5537589598266375, -15.67601066366933
2.555425904317386, 0.4356945418413485
2.5570928488081344, -5.5787088690056095
2.558759793298883, -22.937855209327687
2.5604267377896317, 23.15081723184691
2.56209368228038, -7.243851195780495
2.5637606267711286, -1.2661365462269547
2.565427571261877, 15.482547826346387
2.5670945157526255, -8.855539519772497
2.568761460243374, 11.379720329127716
2.5704284047341224, -20.74065651132307
2.572095349224871, -4.432172653143933
2.5737622937156193, -5.973949757827008
2.5754292382063677, -1.9679677838748422
2.577096182697116, 47.48906540148549
2.5787631271878646, -4.328184344410696
2.580430071678613, -13.323774487591116
2.5820970161693615, 8.427982550202985
2.58376396066011, 2.4886542267031464
2.5854309051508584, 10.338739466141979
2.587097849641607, 11.702837769768777
2.5887647941323553, 22.485699982669175
2.5904317386231037, 7.05414189594809
2.592098683113852, 6.909148738563303
2.5937656276046006, 19.30765954899345
2.595432572095349, 1.571733116788557
2.5970995165860975, 1.2709786819431095
2.598766461076846, 5.377390411554177
2.6004334055675944, -1.226129649042461
2.602100350058343, -1.7980537883270769
2.6037672945490913, 7.660009426385941
2.6054342390398397, 0.9008879439555095
2.607101183530588, -0.19350111168635353
2.6087681280213366, 15.295459462277318
2.610435072512085, -4.844667435201663
2.6121020170028335, -14.838848030644975
2.613768961493582, -15.27374113864013
2.6154359059843304, -23.751640781963225
2.617102850475079, -18.412833704776286
2.6187697949658273, -19.65763209141565
2.620436739456576, -16.205389753836958
2.6221036839473246, -12.670416616905966
2.623770628438073, -10.652511387356354
2.6254375729288215, -12.77268905145694
2.62710451741957, -11.815547133012213
2.6287714619103184, -6.837139061913778
2.630438406401067, -6.777748206429347
2.6321053508918153, -0.6817298637055966
2.6337722953825637, 2.410011190180481
2.635439239873312, 5.870560710398555
2.6371061843640606, 5.769901698260012
2.638773128854809, 8.954252829537397
2.6404400733455575, 12.405523914548597
2.642107017836306, 7.6564438641827195
2.6437739623270544, 6.4790406330551935
2.645440906817803, 5.035332153895641
2.6471078513085513, 7.1741460331833
2.6487747957992998, 9.142979301398611
2.650441740290048, 6.664441470374168
2.6521086847807966, 7.037913423471791
2.653775629271545, 9.096251174155217
2.6554425737622935, 7.785724440506774
2.657109518253042, 7.583513849719678
2.6587764627437904, 7.4530745844209765
2.660443407234539, 2.2092126702235184
2.6621103517252873, -0.899520503502437
2.6637772962160358, 0.02857523254906802
2.665444240706784, 1.7785885406154662
2.6671111851975327, -1.93066920622817
2.668778129688281, 1.5317206279606532
2.6704450741790295, 5.326925407962386
2.672112018669778, -3.5927587545336457
2.6737789631605264, -0.2401488211430669
2.675445907651275, -0.5393003588742648
2.6771128521420233, -3.7019451307002313
2.678779796632772, -2.2571608601626334
2.6804467411235207, -6.126460977710829
2.682113685614269, -6.7323644221859995
2.6837806301050176, -4.537782120841655
2.685447574595766, 1.9817838815599518
2.6871145190865144, 0.11043959055504526
2.688781463577263, -1.2383342917703528
2.6904484080680113, -2.0753142459341043
2.6921153525587598, -2.5492846345922
2.6937822970495082, -3.9793368421465853
2.6954492415402567, -4.069075364190974
2.697116186031005, -6.553111698954529
2.6987831305217536, -5.7949041424952
2.700450075012502, 8.112536028186812
2.7021170195032505, 0.4549301915097361
2.703783963993999, 0.7573777626488285
2.7054509084847473, -1.963030277539044
2.707117852975496, -14.002910757817025
2.7087847974662442, -10.605903410107079
2.7104517419569927, -3.5508308887835125
2.712118686447741, -3.102283283803276
2.7137856309384896, 14.905807138072781
2.715452575429238, -1.3324944204787075
2.7171195199199865, -18.499869426884878
2.718786464410735, 13.427010231995474
2.7204534089014833, -9.199270549844268
2.722120353392232, 21.472292982707096
2.7237872978829802, 11.746441385248769
2.7254542423737287, -10.158907032231962
2.727121186864477, 14.360374321436279
2.7287881313552256, -3.312895280712598
2.730455075845974, 6.319573029580882
2.7321220203367225, -16.30134170246415
2.733788964827471, 28.605448739344144
2.7354559093182194, 21.313745108494924
2.7371228538089682, -20.542692635276218
2.7387897982997167, -9.420172138088628
2.740456742790465, -10.320031345581635
2.7421236872812136, 14.718303243005614
2.743790631771962, 3.1462810543548834
2.7454575762627105, 4.621625052268236
2.747124520753459, 14.239787544403473
2.7487914652442074, 15.521286971957444
2.750458409734956, -17.951321733724335
2.7521253542257043, -7.05129365315692
2.7537922987164527, -2.7426398181224485
2.755459243207201, -21.01945044599297
2.7571261876979496, -7.2025401609557616
2.758793132188698, -3.341588293593384
2.7604600766794465, 32.41126290308109
2.762127021170195, -15.60485464087727
2.7637939656609434, -25.668370500033607
2.765460910151692, 4.174068901333351
2.7671278546424403, -6.770580724151617
2.7687947991331887, 14.460737520504134
2.770461743623937, 14.422134923238794
2.7721286881146856, -13.083733902415709
2.773795632605434, -13.804644490764687
2.7754625770961825, 6.08492168606454
2.777129521586931, -15.925955338185094
2.7787964660776794, 0.1879628239505613
2.780463410568428, 6.948755631436118
2.7821303550591763, 12.085270929986638
2.7837972995499247, 31.026760166238297
2.785464244040673, -13.600322455710138
2.7871311885314216, -17.34467128924396
2.78879813302217, 2.7146715930046725
2.7904650775129185, 12.136410070439318
2.792132022003667, 16.721498638138293
2.7937989664944154, 9.633628591239361
2.795465910985164, 3.2584152470096908
2.7971328554759127, -4.819799806921405
2.798799799966661, -6.727240979549349
2.8004667444574096, -12.264799797399622
2.802133688948158, -8.236869386420423
2.8038006334389065, 0.23757718219499946
2.805467577929655, 1.7396852742605002
2.8071345224204034, -1.3664094544675167
2.808801466911152, 0.21329611454325814
2.8104684114019003, 4.878350423491
2.8121353558926487, -6.796484984766909
2.813802300383397, -3.0727531541841637
2.8154692448741456, 7.747196435080497
2.817136189364894, -9.26662302921603
2.8188031338556425, -4.102651453929264
2.820470078346391, 14.252950243284168
2.8221370228371394, -0.28196103327709254
2.823803967327888, -6.550696605072275
2.8254709118186363, -1.7182894163013174
2.8271378563093847, -2.7032805748169277
2.828804800800133, 0.6608965957309401
2.8304717452908816, -0.20706654716469353
2.83213868978163, -2.0883009000606467
2.8338056342723785, -1.0267337185853171
2.835472578763127, 8.063686585066606
2.8371395232538754, 5.910075740745981
2.838806467744624, -5.871785880994435
2.8404734122353723, -2.306437718911408
2.8421403567261208, -2.8796547857197607
2.843807301216869, -4.593643813147878
2.8454742457076176, -0.9226842758288414
2.847141190198366, -0.8904458817251684
2.8488081346891145, -0.9399960994703067
2.850475079179863, -0.15373347305448784
2.8521420236706114, 1.1397765800548405
2.85380896816136, 0.6541984676099905
2.8554759126521088, -0.6182960507504487
2.857142857142857, 0.5774809077429741
2.8588098016336057, 0.8311255822069726
2.860476746124354, 0.6739606552189742
2.8621436906151025, 2.5054911409883243
2.863810635105851, 1.0169645073546805
2.8654775795965994, 0.3928659853915253
2.867144524087348, 1.6897258553855568
2.8688114685780963, 1.459346543688771
2.8704784130688448, 0.7710347431949662
2.872145357559593, 1.665355613357273
2.8738123020503417, 1.3144504432364612
2.87547924654109, 0.9865701484380304
2.8771461910318386, 2.3268630396397376
2.878813135522587, 2.432946035960641
2.8804800800133354, 3.753545046313921
2.882147024504084, 1.0582815455779644
2.8838139689948323, 0.47746575225995147
2.885480913485581, 1.953103222308811
2.8871478579763292, 2.3382160882980143
2.8888148024670777, 1.2186885298786818
2.890481746957826, 0.16839818754308983
2.8921486914485746, -1.0712774668085148
2.893815635939323, -4.16306112821626
2.8954825804300715, -1.908287760689945
2.89714952492082, -2.715418521652373
2.8988164694115683, -1.3712448210495718
2.900483413902317, -1.4618517389320078
2.9021503583930652, -5.623273193163626
2.9038173028838137, -0.3018487478543348
2.905484247374562, 1.1160810704785886
2.9071511918653106, -2.093861822036601
2.908818136356059, 2.6129621678993136
2.9104850808468075, 0.3023789731135711
2.912152025337556, 1.6675410958463603
2.913818969828305, -0.02192007826699438
2.9154859143190532, -3.833633486498276
2.9171528588098017, 8.926312375931463
2.91881980330055, 2.128073966488799
2.9204867477912986, -7.989214206874911
2.922153692282047, -1.2832898681304639
2.9238206367727955, 1.9790000180142742
2.925487581263544, -4.7974857291633075
2.9271545257542924, 4.527968355951714
2.928821470245041, 3.8754321914253445
2.9304884147357892, -11.594360471643103
2.9321553592265377, 3.9366349333885773
2.933822303717286, 7.516250264831814
2.9354892482080346, -13.59474880249598
2.937156192698783, -14.01109011548738
2.9388231371895315, -1.9201462588735303
2.94049008168028, -7.8230290729271665
2.9421570261710284, 6.576054020627678
2.943823970661777, 3.578112101366309
2.9454909151525253, -5.558572052563558
2.9471578596432737, 0.6824014858584098
2.948824804134022, -2.6712649912754216
2.9504917486247706, 4.785768238394307
2.952158693115519, 10.168233897118608
2.9538256376062675, 20.847774725483458
2.955492582097016, -9.749102037789926
2.9571595265877644, -4.52190057954866
2.958826471078513, 5.156562207589576
2.9604934155692613, 3.0878553940159947
2.9621603600600097, 39.53096285622754
2.963827304550758, 26.155993472289715
2.9654942490415066, 0.8074052694063951
2.967161193532255, -19.520670152975057
2.9688281380230035, -30.979953481579322
2.970495082513752, -28.730886426659083
2.9721620270045004, 30.813222040432063
2.9738289714952493, 10.034523356670045
2.9754959159859977, -27.341633589273982
2.977162860476746, 1.2871736718029219
2.9788298049674946, -23.802481979146513
2.980496749458243, 0.19678509805361433
2.9821636939489915, -9.465164302514523
2.98383063843974, 13.408640836450079
2.9854975829304884, -0.7336260224464617
2.987164527421237, -21.81343968676368
2.9888314719119853, 12.172360476365753
2.9904984164027337, -8.15682616225072
2.992165360893482, 28.72643937130711
2.9938323053842306, 3.209214102505168
2.995499249874979, -5.277345445904937
2.9971661943657275, -2.157561153135186
2.998833138856476, 5.2644697617294405
3.0005000833472244, -3.1688979273437923
3.002167027837973, -24.860903077649024
3.0038339723287213, 19.2906809568629
3.0055009168194697, 1.3778543599650774
3.007167861310218, 2.8205315373352526
3.0088348058009666, 1.7084481639732845
3.010501750291715, 26.20243203064522
3.0121686947824635, -4.333244496117746
3.013835639273212, -1.5056384859416996
3.0155025837639604, 32.31351311871588
3.017169528254709, -17.53151819777132
3.0188364727454573, 25.708117271365317
3.0205034172362057, -6.843595691332508
3.022170361726954, -24.569093312606487
3.0238373062177026, 12.200969538403236
3.025504250708451, -0.5916400669659074
3.0271711951991995, -4.142849527614839
3.028838139689948, -15.92811874408998
3.0305050841806964, -8.267882378320586
3.0321720286714453, -5.3247592539777475
3.0338389731621938, 4.471030012479526
3.035505917652942, 3.579365473738001
3.0371728621436906, -10.466263138853632
3.038839806634439, -3.585846087334817
3.0405067511251875, 8.102118631432875
3.042173695615936, -0.884496953328203
3.0438406401066844, -6.904991919094257
3.045507584597433, -3.1271036097415776
3.0471745290881813, -3.7483523460271915
3.0488414735789298, 2.0255923320599747
3.050508418069678, 0.24705800528833688
3.0521753625604267, -5.056191027097466
3.053842307051175, -0.1969746574631439
3.0555092515419235, 1.9291232621257026
3.057176196032672, -7.234040927146288
3.0588431405234204, -0.8445124141299674
3.060510085014169, 2.1376650187168535
3.0621770295049173, -0.34067986576181863
3.0638439739956658, 3.0555813744916818
3.065510918486414, 1.3764534867117004
3.0671778629771627, 0.733260865313377
3.068844807467911, -0.7943109332265529
3.0705117519586596, 2.3899480056347917
3.072178696449408, 0.0664940896587376
3.0738456409401564, 1.2002476816856458
3.075512585430905, 0.9268250884742737
3.0771795299216533, -0.7215349930036528
3.078846474412402, 5.797760367232725
3.0805134189031502, 0.6903251853500684
3.0821803633938987, 2.7119769054973237
3.083847307884647, 2.4688827529406443
3.0855142523753956, -0.28913420465894646
3.087181196866144, 7.614869045966764
3.0888481413568925, 0.84966215178189
3.0905150858476413, -0.9142647176344001
3.09218203033839, 2.204363471396211
3.0938489748291382, -0.20394856453166743
3.0955159193198867, -0.14043094964324387
3.097182863810635, -2.358905037304735
3.0988498083013836, -0.12189399325650685
3.100516752792132, -1.4688435913294668
3.1021836972828805, -1.728533443763065
3.103850641773629, 8.417177527857252
3.1055175862643773, 5.985411326010945
3.107184530755126, -1.6993831731251863
3.1088514752458742, 1.9010943123793274
3.1105184197366227, 0.23047449067259917
3.112185364227371, -1.1507798508924931
3.1138523087181196, -1.7135845239742702
3.115519253208868, 4.641503722187435
3.1171861976996165, 3.5430683505654
3.118853142190365, -3.879921214634485
3.1205200866811134, 9.022663774774664
3.122187031171862, -1.7923859003088727
3.1238539756626102, -12.33861363204447
3.1255209201533587, -2.0711962179165346
3.127187864644107, -7.685242763405768
3.1288548091348556, -4.610868387615351
3.130521753625604, 6.799409047938712
3.1321886981163525, 1.728676413257653
3.133855642607101, 2.944712536107563
3.1355225870978494, 2.0763048246763978
3.137189531588598, -13.363815540992555
3.1388564760793463, -7.486015112413371
3.1405234205700947, -3.1555479144270175
3.142190365060843, -11.941426929021569
3.1438573095515916, -3.3702814387543323
3.14552425404234, -5.32961794594211
3.1471911985330885, -12.882191285189652
3.148858143023837, 8.28516058554698
3.150525087514586, -6.544228338311489
3.1521920320053343, -7.13780347753083
3.1538589764960827, 16.752000541182014
3.155525920986831, -3.5582732639097934
3.1571928654775796, 22.02037380770198
3.158859809968328, 15.171638117250426
3.1605267544590765, -13.811342963057886
3.162193698949825, -7.7609428922452555
3.1638606434405734, 16.215991016435538
3.165527587931322, 38.706387857886654
3.1671945324220703, -3.735225663877292
3.1688614769128187, 4.356685408285783
3.170528421403567, -1.2065479344642864
3.1721953658943156, -22.31783955492029
3.173862310385064, -2.5344162635975094
3.1755292548758125, 8.068116482848072
3.177196199366561, -12.112072576623984
3.1788631438573094, -22.904573605938953
3.180530088348058, 11.303937323736868
3.1821970328388063, -14.192354844007175
3.1838639773295547, -5.599175548116927
3.185530921820303, -3.2013326337716945
3.1871978663110516, 3.344594214984463
3.1888648108018, 43.051109492901915
3.1905317552925485, 9.053194302091898
3.192198699783297, -24.415916778540527
3.1938656442740454, -3.4152295365997816
3.195532588764794, 10.077391727411685
3.1971995332555423, -14.539261312128101
3.1988664777462907, 12.637189846608596
3.200533422237039, -6.208673693890206
3.2022003667277876, 18.798179420243454
3.203867311218536, 24.146197945324026
3.2055342557092845, -32.223715322036185
3.207201200200033, 21.213839934154073
3.208868144690782, -2.1443380714655422
3.2105350891815303, -13.561134084372544
3.2122020336722787, -20.328073598360582
3.213868978163027, -11.124726234157915
3.2155359226537756, 36.21197718266323
3.217202867144524, 2.328788017853295
3.2188698116352725, 12.582049120214677
3.220536756126021, -8.372458872936164
3.2222037006167694, -26.23116146769442
3.223870645107518, -12.210607028158693
3.2255375895982663, -5.422432850238773
3.2272045340890148, 12.986134908751218
3.228871478579763, -3.2496496367107834
3.2305384230705116, 1.384225445052235
3.23220536756126, -3.8675863786698237
3.2338723120520085, -3.9901002788382653
3.235539256542757, 4.756088921976134
3.2372062010335054, -0.2722447467128113
3.238873145524254, 8.804920783449326
3.2405400900150023, 7.320443102512835
3.2422070345057508, 6.509499524056441
3.243873978996499, -3.404363233381222
3.2455409234872477, -12.94730770979216
3.247207867977996, -8.545302031659716
3.2488748124687445, -5.471923141673889
3.250541756959493, -4.0960158864840075
3.2522087014502414, -0.05078825738989323
3.25387564594099, 1.0258288212648
3.2555425904317383, 0.28587306613374186
3.2572095349224868, 3.933960632084782
3.258876479413235, 1.5050099935642087
3.2605434239039837, 2.7327190908428727
3.262210368394732, 2.5997382323642033
3.2638773128854806, 0.4944437902610397
3.265544257376229, 0.5959988514674421
3.267211201866978, -1.7401781081936722
3.2688781463577263, 0.5396635113584636
3.270545090848475, -0.9484670599818084
3.2722120353392232, -0.5211172063707856
3.2738789798299717, 1.8853421943869
3.27554592432072, 1.4550840285405864
3.2772128688114686, 6.771131255754861
3.278879813302217, 6.5032482469531665
3.2805467577929655, 1.7097105763383684
3.282213702283714, 0.6520337168097123
3.2838806467744623, 0.6950990740060337
3.285547591265211, -0.08268612598206948
3.2872145357559592, 0.7237777207263085
3.2888814802467077, 3.2925419428835787
3.290548424737456, 0.8041918048005294
3.2922153692282046, -1.2560825434815133
3.293882313718953, 0.9588121430572186
3.2955492582097015, 5.2165874586909435
3.29721620270045, -0.7856328472500856
3.2988831471911984, -1.346456854101599
3.300550091681947, 8.581700995207147
3.3022170361726952, -1.978560868003775
3.3038839806634437, -5.964606653407448
3.305550925154192, -0.6710268250112353
3.3072178696449406, -9.491281892094905
3.308884814135689, -3.3752553920611557
3.3105517586264375, 7.9096657034735545
3.312218703117186, -0.022644054971982186
3.3138856476079344, 2.148638311570993
3.315552592098683, -2.5521286576953153
3.3172195365894313, -13.828995473731618
3.3188864810801797, -4.94271987733662
3.320553425570928, -7.0086836198139775
3.3222203700616766, -5.242092926892459
3.323887314552425, 6.711734904110432
3.3255542590431735, 2.4312490597856398
3.3272212035339224, -8.495689871136413
3.328888148024671, -6.076791141446917
3.3305550925154193, -11.441415443142809
3.3322220370061677, -1.8952530566480479
3.333888981496916, 16.013235798571454
3.3355559259876646, -7.064679352938125
3.337222870478413, -5.1007168873544
3.3388898149691615, 5.495844260184434
3.34055675945991, 11.132689577731655
3.3422237039506584, 10.957089637226208
3.343890648441407, -0.42425303684679494
3.3455575929321553, 6.490320901055082
3.3472245374229037, -5.868938608645849
3.348891481913652, 15.181380348969785
3.3505584264044006, 21.7957329662773
3.352225370895149, -5.9847380047141385
3.3538923153858975, -1.3683417351749654
3.355559259876646, 0.9401716275317822
3.3572262043673944, 7.682548383639042
3.358893148858143, -3.0525558517036737
3.3605600933488913, 5.918132613378823
3.3622270378396397, -9.908930435835797
3.363893982330388, -28.742826699163693
3.3655609268211366, 17.43329770517945
3.367227871311885, -4.361479212920191
3.3688948158026335, 7.9871390444308465
3.370561760293382, -5.957214588823238
3.3722287047841304, -33.24635759120881
3.373895649274879, 30.399162011348885
3.3755625937656273, -17.145563621814425
3.3772295382563757, -14.542532358724266
3.378896482747124, 18.609962615802125
3.3805634272378726, 2.803340595137284
3.382230371728621, 1.4146761045929743
3.3838973162193695, -12.917137277166546
3.3855642607101184, 3.452344891095475
3.387231205200867, -10.707179053506366
3.3888981496916153, 13.457752641933743
3.3905650941823637, -0.08132061090019427
3.392232038673112, -4.291612190646531
3.3938989831638606, 22.803578411989374
3.395565927654609, -17.72105839681143
3.3972328721453575, -13.196522948202222
3.398899816636106, 8.425399351443069
3.4005667611268544, 15.416512540109409
3.402233705617603, -9.108988883073632
3.4039006501083513, -8.423828849612999
3.4055675945990997, -0.006787432688074968
3.407234539089848, 2.685878247513193
3.4089014835805966, 12.477022624932564
3.410568428071345, 9.856568524366411
3.4122353725620935, 1.2137058248612078
3.413902317052842, -6.759408627264921
3.4155692615435904, 3.867955567803776
3.417236206034339, -0.6667462976581819
3.4189031505250873, 17.657898249309483
3.4205700950158358, 0.13043126983140052
3.422237039506584, -6.700437732308733
3.4239039839973326, -5.921754331962068
3.425570928488081, -7.837280910033115
3.4272378729788295, 18.833892421492013
3.428904817469578, -7.432316317762177
3.4305717619603264, -7.044648628215736
3.432238706451075, -4.927804137787849
3.4339056509418233, -9.320710024123137
3.4355725954325718, -6.391469678461925
3.43723953992332, -5.11768947196518
3.4389064844140687, 4.433800531860428
3.440573428904817, 5.2044406767436
3.4422403733955655, 2.9595384692063353
3.4439073178863144, -1.7573002664972264
3.445574262377063, 9.559946514742053
3.4472412068678113, -0.27833715420827065
3.4489081513585598, -7.562326296746004
3.450575095849308, -2.419588718260065
3.4522420403400567, -2.4129349508270908
3.453908984830805, -3.041329073336909
3.4555759293215536, -4.151207588814854
3.457242873812302, -0.8905404759482933
3.4589098183030504, -0.986928146300774
3.460576762793799, 3.2888697876649835
3.4622437072845473, 2.920837231300807
3.463910651775296, 3.6681975638756956
3.4655775962660442, 2.526476866955951
3.4672445407567927, 0.2948350857346358
3.468911485247541, -2.093470104817433
3.4705784297382896, 0.10703313484882093
3.472245374229038, 0.21943383026376972
3.4739123187197865, -3.0111355864691927
3.475579263210535, 2.6372399329683955
3.4772462077012833, 0.8392421476263789
3.478913152192032, 3.2791383562110634
3.4805800966827802, 4.624110342693942
3.4822470411735287, 1.1756111803551614
3.483913985664277, -1.6107217125314448
3.4855809301550256, -0.7239414617512121
3.487247874645774, 0.2327077616031168
3.4889148191365225, -0.5098061766678489
3.490581763627271, 3.2543536197784135
3.4922487081180194, 1.7401504862867765
3.493915652608768, 4.5085338091059555
3.4955825970995162, 1.9989067747638178
3.4972495415902647, -3.019697939219253
3.498916486081013, -0.7011324617032895
3.5005834305717616, -1.405783937967366
3.5022503750625105, -1.2888130376922635
3.503917319553259, 0.2463317273218738
3.5055842640440074, 0.3107232520261511
3.507251208534756, 0.842509717344583
3.5089181530255042, -0.8583644677241534
3.5105850975162527, -0.6682613622290823
3.512252042007001, 3.1909631202781097
3.5139189864977496, -0.27076919986883285
3.515585930988498, -4.624990482958822
3.5172528754792465, -1.8765626464347887
3.518919819969995, -3.4549304231349782
3.5205867644607434, -6.339496565085891
3.522253708951492, 11.517626370503983
3.5239206534422403, 9.502642708630114
3.5255875979329887, -5.869498547441561
3.527254542423737, -1.2381700909754247
3.5289214869144856, -5.682084621935452
3.530588431405234, -6.575500320048872
3.5322553758959825, 6.178687297825817
3.533922320386731, -3.6997053116691156
3.5355892648774794, -7.996842530690848
3.537256209368228, 9.024634850170784
3.5389231538589763, -13.764392718634705
3.5405900983497247, -3.8657164470230585
3.542257042840473, -4.646276354371523
3.5439239873312216, -6.768044317171064
3.54559093182197, 6.661531856171062
3.5472578763127185, -4.784452167500191
3.548924820803467, 23.062389358504962
3.5505917652942154, -11.54014107851495
3.552258709784964, 0.9586655340493966
3.5539256542757123, 3.796124343837423
3.5555925987664607, -3.593484694023687
3.557259543257209, 28.2231290473498
3.5589264877479576, -8.495976102664134
3.560593432238706, 19.469081493729576
3.562260376729455, 16.810449508591567
3.5639273212202034, 7.65402074299794
3.565594265710952, -17.44975052393475
3.5672612102017003, -43.75607994495664
3.5689281546924487, 20.504819199174005
3.570595099183197, 14.284133626440454
3.5722620436739456, -8.298099174898802
3.573928988164694, -6.2614085728730124
3.5755959326554425, -20.907176534825364
3.577262877146191, 3.7728856481839927
3.5789298216369394, -3.6796424086046597
3.580596766127688, 9.943115109616613
3.5822637106184363, 61.56883393479133
3.5839306551091847, -14.688731425661825
3.585597599599933, -40.50450774436901
3.5872645440906816, -1.547301344507852
3.58893148858143, -9.696922305667194
3.5905984330721785, 7.3001842471529566
3.592265377562927, 1.969302918973586
3.5939323220536754, -15.130828350428018
3.595599266544424, -6.466108732417085
3.5972662110351723, 4.989238108206434
3.5989331555259207, 6.327890019392923
3.600600100016669, 4.12239931398417
3.6022670445074176, 0.10457912040508643
3.603933988998166, -0.7205921637575622
3.6056009334889145, -8.925047099827138
3.607267877979663, -19.971514247038066
3.6089348224704114, -9.147875521775857
3.61060176696116, 20.592562354174213
3.6122687114519083, 5.311147650159674
3.6139356559426568, 8.024428091304658
3.615602600433405, 34.381351291581495
3.6172695449241536, -20.56663906802359
3.618936489414902, -36.18774850331784
3.620603433905651, 22.205515885108923
3.6222703783963994, 9.983822535959654
3.623937322887148, 0.14671699701994712
3.6256042673778963, 63.819525832044846
3.6272712118686448, 18.50962221444825
3.628938156359393, -31.17574384626593
3.6306051008501417, -22.109986469008007
3.63227204534089, -25.74265645341672
3.6339389898316385, -0.0007600920800134858
3.635605934322387, -6.603416075340709
3.6372728788131354, 10.404405140611916
3.638939823303884, 16.763141643904113
3.6406067677946323, -2.624855560842872
3.6422737122853808, -4.805151777262813
3.643940656776129, -12.104610525830452
3.6456076012668777, -7.228157825959963
3.647274545757626, -8.217786008678338
3.6489414902483746, 0.6850176070564835
3.650608434739123, -0.1875005838247894
3.6522753792298714, -0.8657817961093994
3.65394232372062, 12.795789784596991
3.6556092682113683, 2.28705122925246
3.657276212702117, -5.408439607122488
3.6589431571928652, -0.7225474244110536
3.6606101016836137, -1.8954982350327758
3.662277046174362, -2.7910391983208065
3.6639439906651106, -0.7151937691875588
3.665610935155859, -2.851035198908804
3.6672778796466075, -1.8653261639863032
3.668944824137356, 3.120893349940575
3.6706117686281043, -0.28875428168659734
3.672278713118853, 3.103997269691626
3.6739456576096012, 2.1175613798202892
3.6756126021003497, -3.952045529836721
3.677279546591098, -0.523055201470692
3.678946491081847, -0.09790606301294534
3.6806134355725955, 1.8983967547618714
3.682280380063344, -0.3556007729292644
3.6839473245540924, 1.4526542085131358
3.685614269044841, 3.29109725809174
3.6872812135355892, 0.17266204981915445
3.6889481580263377, 5.88259270518746
3.690615102517086, 5.072355327162909
3.6922820470078346, 1.460844518667673
3.693948991498583, -0.8362893077991633
3.6956159359893315, -0.9416141842584458
3.69728288048008, -2.5432829569232065
3.6989498249708284, -6.2937496093793985
3.700616769461577, -2.0558083624406125
3.7022837139523253, 0.4509684368553597
3.7039506584430737, 3.5864009246982835
3.705617602933822, 4.363883969979353
3.7072845474245706, 2.310651157890023
3.708951491915319, -0.4680815869213439
3.7106184364060675, -0.9695321650547526
3.712285380896816, 1.031973837734541
3.7139523253875644, -2.3240701877612535
3.715619269878313, 0.9019042538494655
3.7172862143690613, 1.2198666765601813
3.7189531588598097, -1.876881057049047
3.720620103350558, 4.687560905616969
3.7222870478413066, 5.622007215806702
3.723953992332055, 1.149084758631224
3.7256209368228035, -0.7148806207986891
3.727287881313552, -5.297498870265854
3.7289548258043004, -5.01992865216807
3.730621770295049, -2.5472909128523042
3.7322887147857973, -3.4190121579155894
3.7339556592765457, -4.515014677294
3.735622603767294, 2.9984173627695223
3.7372895482580426, 8.8364260462613
3.7389564927487915, -1.7938672988246973
3.74062343723954, -2.523377851778564
3.7422903817302884, -4.749143234056052
3.743957326221037, -9.688106954231383
3.7456242707117853, -2.7669051194205143
3.7472912152025337, -4.7812555397676695
3.748958159693282, -5.737634243917594
3.7506251041840306, 16.093987279601812
3.752292048674779, 10.40596581523115
3.7539589931655275, -9.099729231994754
3.755625937656276, 10.651972362588095
3.7572928821470244, -8.313484323698354
3.758959826637773, -8.090362066317724
3.7606267711285213, 15.557785999934026
3.7622937156192697, -10.931374611279246
3.763960660110018, -6.410010438415391
3.7656276046007666, 7.093558066371479
3.767294549091515, 0.7434285160176074
3.7689614935822635, -0.918696523453179
3.770628438073012, 10.845640071120634
3.7722953825637604, 7.233075019103938
3.773962327054509, -4.340955565995423
3.7756292715452573, -1.2435246644552236
3.7772962160360057, 6.997133094764084
3.778963160526754, 9.745445521734839
3.7806301050175026, -6.164181200136564
3.782297049508251, -2.906148502135555
3.7839639939989995, -0.635330350114773
3.785630938489748, 15.493208875660128
3.7872978829804964, -0.061746114883929115
3.788964827471245, -16.463794673470858
3.7906317719619933, 17.931067576449323
3.7922987164527417, -1.108572581007346
3.79396566094349, -9.437558874005356
3.7956326054342386, -5.5425521868059615
3.7972995499249875, -11.207982572281193
3.798966494415736, 5.408984209351131
3.8006334389064844, 2.3378458151185946
3.802300383397233, 0.12890092985450208
3.8039673278879813, -3.2187941261214768
3.8056342723787298, -12.914061112331446
3.807301216869478, 7.69644080762534
3.8089681613602266, -13.296529027641641
3.810635105850975, -15.217247223265957
3.8123020503417235, 20.22672586665135
3.813968994832472, -15.010310908843582
3.8156359393232204, 5.61524757961751
3.817302883813969, 3.5814187144978984
3.8189698283047173, -21.46257230543723
3.8206367727954658, 7.064734633237329
3.822303717286214, -3.4918954105398488
3.8239706617769627, 32.00078183936545
3.825637606267711, 19.08301101167616
3.8273045507584595, -37.16748002225614
3.828971495249208, -11.026494591244624
3.8306384397399564, 8.826128963728165
3.832305384230705, 19.050492352076613
3.8339723287214533, 12.08928948167989
3.8356392732122018, -13.680207981526879
3.83730621770295, -20.42400818609905
3.8389731621936987, 0.9349788415744897
3.840640106684447, 16.05381540873882
3.8423070511751956, -3.7687169322897405
3.843973995665944, 5.078010343943758
3.8456409401566924, 16.724561316884518
3.847307884647441, 0.02737208310544098
3.8489748291381893, -29.969046428379077
3.850641773628938, 1.2290641281168364
3.8523087181196862, 35.70306432596466
3.8539756626104347, 1.150242567414204
3.8556426071011836, -2.9676543044144506
3.857309551591932, 3.58156790977049
3.8589764960826805, 30.911550674887486
3.860643440573429, 9.711987169414861
3.8623103850641773, -27.15358104484048
3.863977329554926, -5.962541831292601
3.8656442740456742, -5.874788548461842
3.8673112185364227, 0.1491321203433511
3.868978163027171, 2.05381028598352
3.8706451075179196, -4.480783508900565
3.872312052008668, -5.86256319378987
3.8739789964994165, -3.620289164568825
3.875645940990165, -7.849474641674594
3.8773128854809134, -4.2866425472910406
3.878979829971662, -1.89446441543857
3.8806467744624102, -3.673572072294502
3.8823137189531587, 18.161052200848737
3.883980663443907, 12.9568996083994
3.8856476079346556, -6.480946828325161
3.887314552425404, -11.63257112250275
3.8889814969161525, -8.643734819510321
3.890648441406901, -5.608850223762218
3.8923153858976494, -10.197260923235987
3.893982330388398, -2.0635096273598945
3.8956492748791463, 2.9467892770285333
3.8973162193698947, -1.0217151266430218
3.898983163860643, 0.8408435714673541
3.9006501083513916, 2.552815034076852
3.90231705284214, 1.5011982780166895
3.9039839973328885, -2.246089823229801
3.905650941823637, -2.088423401348083
3.9073178863143854, -4.282053553264335
3.908984830805134, -2.9588267838725075
3.9106517752958823, -0.40808108373495466
3.9123187197866307, -0.1226751121899411
3.913985664277379, 3.491144798769905
3.915652608768128, 1.46037010902924
3.9173195532588765, 8.464724340850436
3.918986497749625, 6.899590308389708
3.9206534422403734, -0.5098542125709451
3.922320386731122, -1.6462931679517565
3.9239873312218703, -2.49497384241188
3.9256542757126187, 0.9801084186917537
3.927321220203367, 0.45997944309509586
3.9289881646941156, 3.878632542819181
3.930655109184864, 3.362431262345033
3.9323220536756125, 3.0592998668335483
3.933988998166361, 5.288112751058076
3.9356559426571094, 5.448353126139909
3.937322887147858, 3.356325756752001
3.9389898316386063, 0.9268983032640596
3.9406567761293547, 2.6825806280373716
3.942323720620103, 2.383429482828908
3.9439906651108516, 2.329671389455088
3.9456576096016, -1.2407781947180632
3.9473245540923485, 0.276082865868992
3.948991498583097, 5.07107308630261
3.9506584430738454, 1.412320845508951
3.952325387564594, 1.4060952220147431
3.9539923320553423, 6.564644486415857
3.9556592765460907, -2.1068392531650835
3.957326221036839, -3.461154344562258
3.9589931655275876, 3.6584281365719677
3.960660110018336, -4.8236713941303
3.9623270545090845, -8.226585050492401
3.963993998999833, -5.589715914767083
3.9656609434905814, -5.788511094022171
3.96732788798133, 0.30321158427456885
3.9689948324720783, -5.170355029433367
3.9706617769628267, -10.946771351047296
3.972328721453575, 5.3824439167247435
3.973995665944324, -4.0356443622015945
3.9756626104350725, -15.426017160571254
3.977329554925821, -10.628215880426417
3.9789964994165694, -0.8436048127954523
3.980663443907318, -7.479246146138715
3.9823303883980663, -11.938540008789024
3.9839973328888147, 4.431708390353338
3.985664277379563, -6.486144452913524
3.9873312218703116, -3.182050344502817
3.98899816636106, -0.9472090908512563
3.9906651108518085, 12.127739040509557
3.992332055342557, -12.596764787151688
3.9939989998333054, -1.254442603627262
3.995665944324054, 31.198885476928098
3.9973328888148023, 16.305748230501546
3.9989998333055508, 45.65476323879038
4.000666777796299, -9.027465691492427
4.002333722287047, 3.3732908720309815
4.004000666777796, 15.491373722487802
4.005667611268545, -9.547068493304167
4.007334555759293, 20.91323994909827
4.009001500250042, -26.1075308623345
4.01066844474079, -26.883157886081356
4.012335389231539, 1.0669099404820823
4.014002333722287, 20.404801109542724
4.015669278213036, -1.993368483515181
4.017336222703784, -14.619563217659586
4.0190031671945325, 18.365529114194825
4.0206701116852805, -3.878182640729987
4.022337056176029, -27.858778631368793
4.024004000666777, 17.537502541722326
4.025670945157526, 20.285267502808818
4.027337889648274, -22.23325791100752
4.029004834139023, -33.67428898633442
4.030671778629771, -10.48295271835932
4.03233872312052, 32.1027757628959
4.034005667611268, -20.768108142210284
4.035672612102017, 25.735954565233918
4.037339556592765, 18.96845992442018
4.039006501083514, -24.080755240672268
4.040673445574262, 21.947432194837443
4.042340390065011, -20.51225956981637
4.044007334555759, 30.948582135239153
4.045674279046508, -4.028793376308016
4.047341223537256, -37.09562193711688
4.049008168028005, -9.212405635410326
4.050675112518753, -14.04868693307468
4.0523420570095015, 25.967677747956945
4.0540090015002495, -1.1267243560341846
4.055675945990998, -1.3720750088927858
4.057342890481746, 7.627422201960549
4.059009834972495, 5.51957360120048
4.060676779463243, -12.32761670859416
4.062343723953992, -17.156211014549243
4.064010668444741, 10.01317949997762
4.065677612935489, 6.324806949441662
4.067344557426238, 8.040496404541303
4.069011501916986, 13.422802493605747
4.070678446407735, 8.29722766511793
4.072345390898483, -4.4398002866977375
4.074012335389232, -9.722200520961932
4.07567927987998, -12.715876503258183
4.077346224370729, 1.3095318691876008
4.079013168861477, 2.339013512627289
4.0806801133522255, -1.4750828110517393
4.0823470578429735, 14.654000346974138
4.084014002333722, 2.9071610770676037
4.08568094682447, -7.723563133046412
4.087347891315219, -1.634481990575898
4.089014835805967, -0.6991625959081338
4.090681780296716, 0.7949863221424193
4.092348724787464, 8.825582566796381
4.094015669278213, 11.105473730069395
4.095682613768961, 0.9365580061046002
4.09734955825971, -7.769349597578292
4.099016502750458, -8.295344930606436
4.100683447241207, -4.8720060306555055
4.102350391731955, -2.811739649271671
4.104017336222704, -1.2236842371333663
4.105684280713452, -0.5637764682605511
4.107351225204201, -1.8265951656282828
4.109018169694949, 0.4901227836802349
4.1106851141856975, 2.3335204601668895
4.1123520586764455, -0.613254553452377
4.114019003167194, -2.716323390691783
4.115685947657942, -3.8389226279707835
4.117352892148691, -2.9404320376292623
4.119019836639439, -2.1521465983214436
4.120686781130188, -2.2965585835087214
4.122353725620937, 0.4801932276399077
4.124020670111685, 0.2637678019991194
4.125687614602434, -0.9125407929565736
4.127354559093182, 2.7934508476127657
4.129021503583931, 4.695768548358532
4.130688448074679, 2.3444753893481702
4.132355392565428, 1.331655281495315
4.134022337056176, -1.0397723479915166
4.135689281546925, -0.9729040881664057
4.137356226037673, 1.6675476114493653
4.1390231705284215, -0.1760706635959125
4.1406901150191695, -0.5285335097126838
4.142357059509918, -2.2266600505076517
4.144024004000666, 1.358633710942351
4.145690948491415, 2.924255497133787
4.147357892982163, -0.6861844193995197
4.149024837472912, 1.3006553761032082
4.15069178196366, 0.34370561141984424
4.152358726454409, 3.879654247645007
4.154025670945157, 5.4919435447984135
4.155692615435906, 4.587643525909018
4.157359559926654, 2.8309854043071923
4.159026504417403, 1.3225279287805383
4.160693448908151, 4.431176032319387
4.1623603933989, 3.9933421921551293
4.164027337889648, 1.3222648871818132
4.165694282380397, -1.4417976905334369
4.167361226871145, -0.5330303968955272
4.1690281713618935, 0.042694803631323275
4.1706951158526415, 5.760669537808328
4.17236206034339, 2.528888197945717
4.174029004834138, -0.9382893998838461
4.175695949324887, -4.884147526958838
4.177362893815635, -16.7557461294124
4.179029838306384, -7.1325420246938425
4.180696782797133, -0.7509247152043512
4.182363727287881, 5.778201322243161
4.18403067177863, -2.900485874774537
4.185697616269378, -18.216094245938507
4.187364560760127, -8.131273531839263
4.189031505250875, -6.18788696515614
4.190698449741624, -2.377158795442629
4.192365394232372, -2.167543765523183
4.194032338723121, -0.6144823781122164
4.195699283213869, -4.13330196288044
4.1973662277046175, -6.850379906662832
4.1990331721953655, 7.953146736730313
4.200700116686114, -2.079088664448702
4.202367061176862, -7.902534887790511
4.204034005667611, 4.753053684644433
4.205700950158359, 17.25092232061397
4.207367894649108, 9.742923146161987
4.209034839139856, 1.33086575472523
4.210701783630605, 37.99191677036654
4.212368728121353, 35.26038271925493
4.214035672612102, -18.431823120626458
4.21570261710285, -35.00923792830501
4.217369561593599, -14.501662820517767
4.219036506084347, 14.4942877579329
4.220703450575096, 24.783306239080776
4.222370395065844, 1.7465219851087113
4.224037339556593, -9.585606094344813
4.225704284047341, -5.282521854583394
4.2273712285380896, -5.622146080796848
4.2290381730288376, 11.378447849458869
4.2307051175195864, -1.3601178545449768
4.2323720620103344, -0.2632901851014777
4.234039006501083, 1.0973613610105302
4.235705950991831, -15.094405443630649
4.23737289548258, 12.505811302918527
4.239039839973329, -22.83088329542996
4.240706784464077, 0.454534525549219
4.242373728954826, 46.95418463979432
4.244040673445574, -5.5332249295291644
4.245707617936323, -6.3281820637169055
4.247374562427071, -16.799627509152636
4.24904150691782, -27.4826941250792
4.250708451408568, -0.38459069698628356
4.252375395899317, -13.634676252909774
4.254042340390065, -13.989517602637545
4.255709284880814, 14.797766257237196
4.257376229371562, 5.94577488665449
4.2590431738623105, -1.7855260231591188
4.2607101183530585, -2.894641066866651
4.262377062843807, 11.989211306042876
4.264044007334555, 19.121846695865166
4.265710951825304, -25.35055610262942
4.267377896316052, -11.601355225447051
4.269044840806801, 3.0242835926667633
4.270711785297549, -20.999258079128076
4.272378729788298, -7.7087038322995145
4.274045674279046, 18.66247053788947
4.275712618769795, 6.9097799001725075
4.277379563260543, -18.113071094963395
4.279046507751292, 16.494126746650995
4.28071345224204, 22.07320352263585
4.282380396732789, -12.314181973632497
4.284047341223537, 24.630338710377643
4.285714285714286, 26.04315492172202
4.287381230205034, -16.917972332632942
4.2890481746957825, -8.070893146654642
4.2907151191865305, 23.18427174076328
4.292382063677279, 10.390720532770185
4.294049008168027, -10.965725711822568
4.295715952658776, 22.08244773593563
4.297382897149525, -22.902873186271087
4.299049841640273, -3.6875178599433927
4.300716786131022, 42.08221453186144
4.30238373062177, -28.749576138006667
4.304050675112519, -7.320087273338132
4.305717619603267, 5.220785213561751
4.307384564094016, -16.703218861709114
4.309051508584764, -10.093088088553266
4.310718453075513, -13.045868446678188
4.312385397566261, 1.357505776274179
4.31405234205701, 16.3734013281453
4.315719286547758, 5.850111236152091
4.3173862310385065, -13.854610926632047
4.3190531755292545, -2.2742831092104248
4.320720120020003, -5.116288320573531
4.322387064510751, -3.731688567152964
4.3240540090015, 12.313473468511791
4.325720953492248, -1.3435015431691992
4.327387897982997, -9.711802541291988
4.329054842473745, -2.025820906930118
4.330721786964494, -2.2354688997821373
4.332388731455242, -7.757884621670201
4.334055675945991, -3.2288843031644348
4.335722620436739, -1.5560189081824007
4.337389564927488, -3.6146387886789357
4.339056509418236, 2.5437027712513323
4.340723453908985, 0.7150298484085171
4.342390398399733, -0.4993258742233881
4.344057342890482, 0.8767028685751951
4.34572428738123, 2.2907823928345943
4.3473912318719785, 1.9664579678933718
4.3490581763627265, -5.06785756882374
4.350725120853475, 3.0321168165705386
4.352392065344223, 3.499360417609146
4.354059009834972, 4.067304738807806
4.355725954325721, 10.108119654302909
4.357392898816469, 2.038337629390412
4.359059843307218, 3.8716342387864504
4.360726787797966, 2.9288424225207144
4.362393732288715, -2.144382600337235
4.364060676779463, 0.7709858473699471
4.365727621270212, 2.0595883628418727
4.36739456576096, 1.645836417453531
4.369061510251709, 4.429407327389082
4.370728454742457, 2.6586934329851855
4.372395399233206, 1.889314681962988
4.374062343723954, 0.9024643167662543
4.3757292882147025, -1.6188620481448261
4.3773962327054505, 2.421003164908141
4.379063177196199, -2.1028791403312823
4.380730121686947, -0.8114961654294102
4.382397066177696, -1.5118396072248899
4.384064010668444, -0.8781887288310272
4.385730955159193, 3.235943899094244
4.387397899649941, -3.872999905643978
4.38906484414069, -2.8002283636605556
4.390731788631438, 0.1572664922335596
4.392398733122187, -0.631037338140064
4.394065677612935, 0.2486324101672328
4.395732622103684, 3.650262465361333
4.397399566594432, -8.487927458436161
4.399066511085181, -8.098608422123682
4.400733455575929, -0.9196628414995422
4.402400400066678, -11.996537599673001
4.404067344557426, -4.9745684268258294
4.4057342890481745, 3.946763106680785
4.4074012335389225, -9.719292084927071
4.409068178029671, 0.8911166617889494
4.410735122520419, 6.605374621184893
4.412402067011168, -15.831557746109748
4.414069011501916, 19.6186793878756
4.415735955992665, -13.798398673578426
4.417402900483414, -5.068882801348375
4.419069844974162, 55.31790319711995
4.420736789464911, -16.629539073622844
4.422403733955659, -9.49185835354211
4.424070678446408, 0.18869198159772882
4.425737622937156, 4.299518437361985
4.427404567427905, 12.065750202138322
4.429071511918653, -3.1127481253751865
4.430738456409402, 38.85514913052981
4.43240540090015, -14.532631301761347
4.434072345390899, -35.77185248206956
4.435739289881647, 8.55849309641227
4.4374062343723955, -6.572931328809753
4.4390731788631435, 13.154863897743775
4.440740123353892, 12.202709748683656
4.44240706784464, -17.28226579011191
4.444074012335389, 7.874826241665444
4.445740956826137, -20.92351633107773
4.447407901316886, -23.529208677331404
4.449074845807634, 14.24379667501821
4.450741790298383, 10.963810153335864
4.452408734789131, 0.12974761307441862
4.45407567927988, -16.411784540609435
4.455742623770628, -6.771405802827538
4.457409568261377, 10.115229024112104
4.459076512752125, 27.413631800197194
4.460743457242874, -7.037836036731249
4.462410401733622, -9.060813414428774
4.464077346224371, 2.074256804209707
4.465744290715119, 10.668542763250068
4.4674112352058675, 30.60538749145171
4.4690781796966155, -33.54585345069457
4.470745124187364, -43.48206719840773
4.472412068678112, 14.51357178087893
4.474079013168861, 31.273253387382468
4.47574595765961, 5.643480497890832
4.477412902150358, 23.730819098163643
4.479079846641107, 1.2073947502441362
4.480746791131855, -30.73287108783422
4.482413735622604, -3.0705589474937236
4.484080680113352, -14.95208267071234
4.485747624604101, 6.5908632346109295
4.487414569094849, 21.32961068690608
4.489081513585598, 5.7694571829117125
4.490748458076346, -2.3443207844024845
4.492415402567095, -15.276835682274102
4.494082347057843, -8.100828579891557
4.4957492915485915, -0.5892041903624259
4.4974162360393395, -7.800242971437543
4.499083180530088, -3.4168717947445453
4.500750125020836, -0.14113736954977085
4.502417069511585, 8.895805861149213
4.504084014002333, 24.225278618603554
4.505750958493082, -0.9790179497577904
4.50741790298383, -12.406318181589851
4.509084847474579, -2.2692993216167876
4.510751791965327, -3.853877115690997
4.512418736456076, -1.073640944264326
4.514085680946824, -1.0511945434951582
4.515752625437573, -0.3795773521975043
4.517419569928321, -0.018473848077243282
4.51908651441907, -3.098692597964665
4.520753458909818, -0.8293589056985958
4.522420403400567, 2.901637772898125
4.524087347891315, 0.41623693985816157
4.5257542923820635, -5.229137825228858
4.5274212368728115, -3.3834019252541387
4.52908818136356, -0.3510322367243238
4.530755125854308, -1.308599989929576
4.532422070345057, 1.6425744825229438
4.534089014835806, 1.5999652733205703
4.535755959326554, 2.8092535826114986
4.537422903817303, 5.347777026029789
4.539089848308051, 2.1565925168820366
4.5407567927988, -2.0226911017669904
4.542423737289548, -0.34384498283382126
4.544090681780297, 2.5475610602757928
4.545757626271045, 0.26468521577088466
4.547424570761794, 4.111871743787646
4.549091515252542, 6.942974264492198
4.550758459743291, 1.70265015204496
4.552425404234039, -0.33416452350181913
4.5540923487247875, -0.673227328850635
4.5557592932155355, -0.5771274923132332
4.557426237706284, 0.9689676136299123
4.559093182197032, -0.7858335919452331
4.560760126687781, -0.40045207464642785
4.562427071178529, 0.04249323254707158
4.564094015669278, 1.1866907273911549
4.565760960160026, 1.9012584444263403
4.567427904650775, -1.2875905530810332
4.569094849141523, 2.7619392123952475
4.570761793632272, 1.1847968969569285
4.57242873812302, -4.42934776660811
4.574095682613769, -1.3632983264347938
4.575762627104517, -0.7393095307219977
4.577429571595266, -1.8911256492648831
4.579096516086014, 1.7771445824933665
4.580763460576763, -1.3745126680684254
4.582430405067511, -2.895999918926047
4.5840973495582595, 2.170663210321719
4.5857642940490075, -0.7137606548097617
4.587431238539756, -4.326728152919294
4.589098183030504, -5.562237131643449
4.590765127521253, -0.988560100076511
4.592432072012002, -6.277385092013908
4.59409901650275, -2.9529124260831034
4.595765960993499, 5.304731491155554
4.597432905484247, -7.313303818064861
4.599099849974996, -4.7197192533978924
4.600766794465744, -2.0559330010574968
4.602433738956493, -6.375677158875671
4.604100683447241, 1.971821673366612
4.60576762793799, 0.17936577057700864
4.607434572428738, -1.9538414702963511
4.609101516919487, 10.688152417871217
4.610768461410235, -4.4877006212677
4.6124354059009836, 2.8607602369215366
4.6141023503917316, 15.699072894560807
4.6157692948824804, -0.5316407019124374
4.6174362393732284, 33.817585322793
4.619103183863977, 25.433471923462683
4.620770128354725, -13.107386402758436
4.622437072845474, -13.141430958119898
4.624104017336222, -1.223473649444939
4.625770961826971, 11.972189127621503
4.627437906317719, -36.77439590609988
4.629104850808468, -34.94967120970371
4.630771795299216, 19.961136957307893
4.632438739789965, 20.384354755377935
4.634105684280713, 11.673960883265385
4.635772628771462, -27.707481309970166
4.63743957326221, -27.982304475407254
4.639106517752959, 24.103600857573156
4.640773462243707, 16.66186144535699
4.642440406734456, -23.933050567618025
4.644107351225204, -1.5893349533565537
4.6457742957159525, 12.221678167966738
4.6474412402067005, 6.32921485377132
4.649108184697449, 37.294305774391034
4.650775129188198, -24.19533508617114
4.652442073678946, -25.29952531983345
4.654109018169695, 7.46521278295635
4.655775962660443, 5.717069117980317
4.657442907151192, 39.926950880252996
4.65910985164194, -7.209669635085604
4.660776796132689, -17.518157781696523
4.662443740623437, -19.20003230706672
4.664110685114186, -5.065048572688533
4.665777629604934, 29.09478569771193
4.667444574095683, 19.705291913016666
4.669111518586431, 4.280608664654653
4.67077846307718, -28.884490525183136
4.672445407567928, -14.094825486389235
4.6741123520586765, -9.308923693631254
4.6757792965494245, -14.782818443553348
4.677446241040173, 5.322737375100153
4.679113185530921, 17.09628537741377
4.68078013002167, 7.2506719747849955
4.682447074512418, 1.1447584273694318
4.684114019003167, -4.082653774355903
4.685780963493915, -10.127901192454061
4.687447907984664, -5.234408568686198
4.689114852475412, -11.104032419896223
4.690781796966161, 8.056657070627443
4.692448741456909, 6.086703077663332
4.694115685947658, -0.22327706882021536
4.695782630438406, 7.598224021368098
4.697449574929155, 1.668382251979211
4.699116519419903, -0.22192880014178007
4.700783463910652, 2.3625748529243555
4.7024504084014, -1.9915208330529741
4.7041173528921485, -1.4573251775794482
4.7057842973828965, 12.551169709766091
4.707451241873645, -3.9267864476700716
4.709118186364394, -1.5458367059886715
4.710785130855142, 1.0453252328449019
4.712452075345891, -7.443175190187163
4.714119019836639, -1.2809821901733174
4.715785964327388, -3.409821597490925
4.717452908818136, 2.392667544480031
4.719119853308885, -0.6836176107903422
4.720786797799633, 0.27233306674518376
4.722453742290382, 1.6322242395246933
4.72412068678113, 4.404731452499079
4.725787631271879, 1.5936669239842745
4.727454575762627, -6.307702555465832
4.729121520253376, -0.6336993493433436
4.730788464744124, 2.966690750503768
4.7324554092348725, 1.138358205935336
4.7341223537256205, -1.9226291736689811
4.735789298216369, 5.040523738161288
4.737456242707117, 2.9553191680711275
4.739123187197866, 2.104548017695442
4.740790131688614, 4.6299922291907
4.742457076179363, -0.7285216578857971
4.744124020670111, -1.7997832668736156
4.74579096516086, -2.562439870029563
4.747457909651608, -3.2195668835309768
4.749124854142357, -3.4896381955834572
4.750791798633105, -0.5491170381516792
4.752458743123854, 0.44974483968706513
4.754125687614602, 1.230841811973681
4.755792632105351, 2.2814280075323192
4.757459576596099, 5.080782551720335
4.759126521086848, 2.0823105435846934
4.760793465577596, -4.070130250033159
4.7624604100683445, -2.0549693872652677
4.7641273545590925, -3.2825273419964813
4.765794299049841, -3.0637748698132024
4.767461243540589, -0.5678531187912279
4.769128188031338, -0.935120310175779
4.770795132522087, -1.8657306308933337
4.772462077012835, -2.7302768858610875
4.774129021503584, 5.958863555460363
4.775795965994332, 3.424636304873576
4.777462910485081, -4.898665457729059
4.779129854975829, 3.3611459700866066
4.780796799466578, -11.217994367879758
4.782463743957326, 2.918596142459808
4.784130688448075, 2.174541493622929
4.785797632938823, -19.965688195658622
4.787464577429572, 10.299825450549013
4.78913152192032, -9.153055845679997
4.7907984664110685, -0.057153115346076255
4.7924654109018165, 38.73166227965321
4.794132355392565, -2.321955685989792
4.795799299883313, -37.79545925331759
4.797466244374062, 3.021801782248701
4.79913318886481, 8.727663261431733
4.800800133355559, 10.64194164723659
4.802467077846307, 39.504805277071426
4.804134022337056, -22.47066185718235
4.805800966827804, 12.364884369152247
4.807467911318553, 7.03025394000557
4.809134855809301, -28.167549740913252
4.81080180030005, 28.666921647326163
4.812468744790798, -41.606334853314344
4.814135689281547, -33.16773805356118
4.815802633772295, 7.776281415287847
4.817469578263044, 12.597089003545314
4.819136522753792, 25.016219714546658
4.820803467244541, -18.224715640085595
4.822470411735289, 3.2908892351060164
4.8241373562260375, -0.8590548554235706
4.8258043007167855, 6.710465839398767
4.827471245207534, 28.583759289033424
4.829138189698283, -3.7575817519400303
4.830805134189031, 6.107481042443951
4.83247207867978, -15.228640715380022
4.834139023170528, -25.252253151922556
4.835805967661277, 6.175506739018788
4.837472912152025, 14.526555516464384
4.839139856642774, 29.341650424703197
4.840806801133522, -3.5373828743216857
4.842473745624271, -22.845436245883107
4.844140690115019, -9.43059281048621
4.845807634605768, -3.4711808817964265
4.847474579096516, 27.801651545659777
4.849141523587265, 6.477544056790631
4.850808468078013, -17.00144324081294
4.8524754125687615, -9.856516072303442
4.8541423570595095, -8.101285743234763
4.855809301550258, -3.258219772141967
4.857476246041006, -0.7632648211379474
4.859143190531755, 11.446380703751082
4.860810135022503, 1.8583412315091667
4.862477079513252, -1.7035756955125418
4.864144024004, -2.2179080368777484
4.865810968494749, -10.823453490964729
4.867477912985497, -5.821430160884429
4.869144857476246, -0.12637104526650367
4.870811801966994, 3.288437941194007
4.872478746457743, 7.171038962528119
4.874145690948491, 9.327056039562834
4.87581263543924, -0.06711472299162358
4.877479579929988, 2.4166816690776374
4.879146524420737, -2.8533020786850796
4.880813468911485, -11.431894729174452
4.8824804134022335, -4.087177011536584
4.8841473578929815, -4.287730885854993
4.88581430238373, -2.6073215508752003
4.887481246874479, 1.7577248646821506
4.889148191365227, 3.748282543320364
4.890815135855976, 1.6401046199635578
4.892482080346724, 1.1015501578999682
4.894149024837473, 0.3451688018673047
4.895815969328221, -2.4788633385619088
4.89748291381897, -0.0933303707099955
4.899149858309718, 1.0299160760343296
4.900816802800467, -0.6106866715527599
4.902483747291215, 0.6219014405115544
4.904150691781964, 3.867698198132913
4.905817636272712, 4.279795473862419
4.907484580763461, 3.407659853292004
4.909151525254209, 3.989448374005502
4.9108184697449575, 1.0521511028963977
4.9124854142357055, -1.2498751722406447
4.914152358726454, 2.8127923184281247
4.915819303217202, 2.5791476194109997
4.917486247707951, 1.669356599233148
4.919153192198699, 3.508012618779258
4.920820136689448, 3.5801549928057583
4.922487081180196, 1.5682156643519827
4.924154025670945, 0.5024980306836209
4.925820970161693, 0.7707042722888244
4.927487914652442, -1.583594131367249
4.92915485914319, -2.9127287983374224
4.930821803633939, -0.6573064329819159
4.932488748124687, 1.4419631340059769
4.934155692615436, 1.3482021261402495
4.935822637106184, 2.7182001958594686
4.937489581596933, 0.5334458519641536
4.939156526087681, -2.2151085059004663
4.9408234705784295, -6.999721572795817
4.9424904150691775, -5.457974686714247
4.944157359559926, -4.198651884035256
4.945824304050675, -4.020179625447647
4.947491248541423, 2.8821123258646155
4.949158193032172, 3.2344373815721603
4.95082513752292, -8.961928881192852
4.952492082013669, -14.387354023790309
4.954159026504417, -0.08266650756586458
4.955825970995166, -10.445100913233405
4.957492915485914, 9.096896299036468
4.959159859976663, -4.486340910534881
4.960826804467411, -13.755164859544683
4.96249374895816, 21.75554613605772
4.964160693448908, -14.67292222622882
4.965827637939657, 7.171076703212282
4.967494582430405, -8.265427861790258
4.9691615269211535, 3.238618329237811
4.9708284714119015, 46.19755677859219
4.97249541590265, -19.779302264612163
4.974162360393398, -9.500803978657508
4.975829304884147, -7.5201317426213565
4.977496249374895, 17.181658202665766
4.979163193865644, 27.69065957426087
4.980830138356392, -30.562751504483224
4.982497082847141, 13.839705228711798
4.984164027337889, 4.182493062659855
4.985830971828638, -12.884053317281772
4.987497916319386, 16.15663008215222
4.989164860810135, -18.153236375952876
4.990831805300883, -3.0539853698935273
4.992498749791632, 8.49173771220758
4.99416569428238, 6.003516880938081
4.995832638773129, -11.418790171443657
4.997499583263877, -12.23164111155205
4.9991665277546256, 33.5452497757875
